   1.0000000   0.0000000   0.0000000   1.0000000       0.000       0.000
   1.0000000   0.0000000   0.0000000   1.0000000       1.873      -1.156
   1.0000000   0.0000000   0.0000000   1.0000000       4.171      -2.188
   1.0000000   0.0000000   0.0000000   1.0000000       1.644       3.713
   1.0000000   0.0000000   0.0000000   1.0000000       3.718      -1.210
   1.0000000   0.0000000   0.0000000   1.0000000      -0.729      -3.867
   1.0000000   0.0000000   0.0000000   1.0000000       2.538       2.078
   1.0000000   0.0000000   0.0000000   1.0000000      -0.535       0.170
   1.0000000   0.0000000   0.0000000   1.0000000       5.721      -3.115
   1.0000000   0.0000000   0.0000000   1.0000000      -2.588       3.471
   1.0000000   0.0000000   0.0000000   1.0000000       4.474      -1.874
   1.0000000   0.0000000   0.0000000   1.0000000      -0.152       3.575
   1.0000000   0.0000000   0.0000000   1.0000000       6.075      -3.138
   1.0000000   0.0000000   0.0000000   1.0000000      -2.756       0.507
   1.0000000   0.0000000   0.0000000   1.0000000       1.110      -4.521
   1.0000000   0.0000000   0.0000000   1.0000000       4.235       2.850
   1.0000000   0.0000000   0.0000000   1.0000000       2.876      -2.300
   1.0000000   0.0000000   0.0000000   1.0000000      -2.382       0.718
   1.0000000   0.0000000   0.0000000   1.0000000       1.714      -0.802
   1.0000000   0.0000000   0.0000000   1.0000000       1.452      -0.373
   1.0000000   0.0000000   0.0000000   1.0000000       1.440      -2.988
   1.0000000   0.0000000   0.0000000   1.0000000       0.278       3.383
   1.0000000   0.0000000   0.0000000   1.0000000       0.155      -1.427
   1.0000000   0.0000000   0.0000000   1.0000000       1.375      -1.523
   1.0000000   0.0000000   0.0000000   1.0000000       0.700       2.020
   1.0000000   0.0000000   0.0000000   1.0000000       2.281      -4.304
   1.0000000   0.0000000   0.0000000   1.0000000       2.636       4.994
   1.0000000   0.0000000   0.0000000   1.0000000      -1.596       1.297
   1.0000000   0.0000000   0.0000000   1.0000000      -0.490      -2.947
   1.0000000   0.0000000   0.0000000   1.0000000      -7.809      14.863
   1.0000000   0.0000000   0.0000000   1.0000000      15.147     -21.096
   1.0000000   0.0000000   0.0000000   1.0000000     -13.837       3.819
   1.0000000   0.0000000   0.0000000   1.0000000      18.252       0.721
   1.0000000   0.0000000   0.0000000   1.0000000     -10.839       0.525
   1.0000000   0.0000000   0.0000000   1.0000000      -2.801       0.118
   1.0000000   0.0000000   0.0000000   1.0000000       4.025       1.175
   1.0000000   0.0000000   0.0000000   1.0000000      -4.101      -0.352
   1.0000000   0.0000000   0.0000000   1.0000000       2.934      -0.127
   1.0000000   0.0000000   0.0000000   1.0000000       2.339       1.045
   1.0000000   0.0000000   0.0000000   1.0000000      -4.658      -1.751
   1.0000000   0.0000000   0.0000000   1.0000000      -0.778       0.023
   1.0000000   0.0000000   0.0000000   1.0000000      -0.061       1.662
   1.0000000   0.0000000   0.0000000   1.0000000       1.937      -0.283
   1.0000000   0.0000000   0.0000000   1.0000000      -4.058      -0.443
   1.0000000   0.0000000   0.0000000   1.0000000      -0.437       1.531
   1.0000000   0.0000000   0.0000000   1.0000000      -1.228      -1.896
   1.0000000   0.0000000   0.0000000   1.0000000       1.375      -1.552
   1.0000000   0.0000000   0.0000000   1.0000000       0.611       5.415
   1.0000000   0.0000000   0.0000000   1.0000000      -3.835      -3.043
   1.0000000   0.0000000   0.0000000   1.0000000      -8.106       2.208
   1.0000000   0.0000000   0.0000000   1.0000000       6.998      -0.019
   1.0000000   0.0000000   0.0000000   1.0000000      -0.766      -1.005
   1.0000000   0.0000000   0.0000000   1.0000000      -5.261       0.537
   1.0000000   0.0000000   0.0000000   1.0000000       2.688      -1.259
   1.0000000   0.0000000   0.0000000   1.0000000      -2.207       5.823
   1.0000000   0.0000000   0.0000000   1.0000000      -4.188      -1.268
   1.0000000   0.0000000   0.0000000   1.0000000      -1.403      -1.569
   1.0000000   0.0000000   0.0000000   1.0000000       2.087      -0.861
   1.0000000   0.0000000   0.0000000   1.0000000      -0.027      -0.609
   1.0000000   0.0000000   0.0000000   1.0000000      -4.218       1.761
   1.0000000   0.0000000   0.0000000   1.0000000      -3.257       3.236
