   0.9841404  -0.1924133   0.1869509   0.9823826     -36.351       1.239
   0.9839759  -0.1934410   0.1887607   0.9820698     -33.720       0.273
   0.9837744  -0.1932658   0.1895627   0.9832494     -28.752      -1.085
   0.9835949  -0.1920880   0.1889943   0.9829481     -27.656       2.980
   0.9846676  -0.1930433   0.1904843   0.9839154     -23.470       2.476
   0.9839920  -0.1931346   0.1910596   0.9831473     -22.962      -1.496
   0.9830258  -0.1923223   0.1910655   0.9840557     -20.440       1.011
   0.9822315  -0.1925666   0.1917072   0.9831831     -20.766       0.965
   0.9830865  -0.1933099   0.1928134   0.9839690     -14.301      -1.006
   0.9829273  -0.1934789   0.1933171   0.9837440     -17.263       1.805
   0.9831275  -0.1928992   0.1930475   0.9838833     -12.359       0.973
   0.9833558  -0.1939345   0.1942392   0.9832957     -12.918       4.387
   0.9833072  -0.1950353   0.1956262   0.9831899      -6.266       2.608
   0.9829725  -0.1950270   0.1958879   0.9828015      -9.041       2.351
   0.9835569  -0.1955484   0.1966666   0.9833341      -6.948      -1.785
   0.9839952  -0.1959671   0.1973303   0.9837229      -3.060       1.938
   0.9838584  -0.1958388   0.1974362   0.9835395       0.364       0.143
   0.9844666  -0.1961626   0.1979871   0.9841018      -1.762       0.389
   0.9840787  -0.1965658   0.1986001   0.9836273       0.303      -0.089
   0.9842116  -0.1968108   0.1990586   0.9837165       1.861      -0.278
   0.9845713  -0.1970475   0.1995056   0.9840332       4.189      -2.945
   0.9848011  -0.1971168   0.1993994   0.9842983       4.017       0.448
   0.9843882  -0.1973395   0.1994528   0.9839190       4.505      -0.791
   0.9844874  -0.1979626   0.1999146   0.9840497       6.241      -2.145
   0.9839846  -0.1984364   0.2002321   0.9835775       6.745       0.004
   0.9839026  -0.1985817   0.2002273   0.9835257      10.054      -3.901
   0.9835999  -0.1987154   0.2005181   0.9847375      11.843       1.564
   0.9831384  -0.1993671   0.2010289   0.9843026      10.119       2.531
   0.9829411  -0.1995958   0.2011198   0.9841326      10.438      -0.409
   0.9832891  -0.2001760   0.2015663   0.9845088      -0.160      12.553
   0.9834860  -0.2005031   0.2017613   0.9847332      19.187      -5.313
   0.9836056  -0.2005918   0.2018686   0.9848494       5.035      -4.206
   0.9830466  -0.2010896   0.2023859   0.9842844      23.157       0.344
   0.9835055  -0.2008924   0.2022095   0.9847406      12.582      -1.427
   0.9834855  -0.2009708   0.2023100   0.9847160       9.846      -1.829
   0.9828917  -0.2010965   0.2026753   0.9851698      13.807       0.268
   0.9827245  -0.2014888   0.2030933   0.9849965      10.200      -1.134
   0.9822459  -0.2015284   0.2031587   0.9845100      13.287      -0.600
   0.9823198  -0.2018458   0.2035050   0.9845783      15.412       0.881
   0.9824319  -0.2020770   0.2037667   0.9846846      11.427      -1.753
   0.9828972  -0.2023258   0.2040485   0.9851457      10.842      -1.841
   0.9837877  -0.2022603   0.2042028   0.9859954      10.734      -0.221
   0.9841261  -0.2025253   0.2046943   0.9862885      12.870       0.096
   0.9832851  -0.2034247   0.2061004   0.9867011       9.177      -1.283
   0.9832807  -0.2029733   0.2058893   0.9866469       8.465       0.285
   0.9832257  -0.2023929   0.2055590   0.9865398       7.933      -1.939
   0.9832077  -0.2021562   0.2055853   0.9864673       9.691      -3.227
   0.9836591  -0.2017568   0.2054634   0.9868654       9.527       2.466
   0.9833632  -0.2022292   0.2062290   0.9865056       6.481      -1.387
   0.9832722  -0.2030269   0.2073383   0.9863475      -1.639      -1.006
   0.9825902  -0.2029152   0.2075509   0.9855923       5.519       0.397
   0.9830473  -0.2028921   0.2075007   0.9847943       5.154      -0.715
   0.9828893  -0.2033937   0.2082463   0.9845829       0.197      -1.187
   0.9826401  -0.2037032   0.2088181   0.9842765       3.481      -1.889
   0.9824937  -0.2034393   0.2088366   0.9840712       0.333       3.452
   0.9836595  -0.2036179   0.2093316   0.9851779      -3.253       1.492
   0.9856576  -0.2029575   0.2087415   0.9858029      -3.810      -0.496
   0.9853356  -0.2030302   0.2091857   0.9854024      -1.376      -0.861
   0.9848260  -0.2041172   0.2106846   0.9847992      -1.000      -1.409
   0.9850660  -0.2047887   0.2118182   0.9849397      -5.290      -0.681
   0.9855637  -0.2056014   0.2131498   0.9853257      -8.963       1.848
