   0.9841399  -0.1924132   0.1869508   0.9823821      -7.249       0.208
   0.9839754  -0.1934409   0.1887606   0.9820694      -6.683       0.077
   0.9837739  -0.1932657   0.1895626   0.9832489      -6.248       0.095
   0.9835944  -0.1920879   0.1889942   0.9829476      -6.063       0.188
   0.9846671  -0.1930432   0.1904842   0.9839150      -5.743       0.190
   0.9839915  -0.1931345   0.1910595   0.9831468      -5.275       0.173
   0.9830253  -0.1923222   0.1910654   0.9840552      -4.867       0.149
   0.9822310  -0.1925665   0.1917071   0.9831826      -4.646       0.052
   0.9830860  -0.1933098   0.1928133   0.9839685      -4.391       0.057
   0.9829268  -0.1934788   0.1933170   0.9837435      -4.139      -0.041
   0.9831270  -0.1928991   0.1930474   0.9838828      -3.995       0.103
   0.9833553  -0.1939344   0.1942391   0.9832952      -3.707       0.042
   0.9833067  -0.1950352   0.1956261   0.9831894      -3.634       0.172
   0.9829720  -0.1950269   0.1958878   0.9828010      -3.602      -0.042
   0.9835564  -0.1955483   0.1966665   0.9833336      -3.480       0.051
   0.9839947  -0.1959670   0.1973302   0.9837224      -3.200       0.138
   0.9838579  -0.1958387   0.1974361   0.9835390      -3.056       0.038
   0.9844661  -0.1961625   0.1979870   0.9841013      -2.698       0.047
   0.9840782  -0.1965657   0.1986000   0.9836268      -2.477       0.017
   0.9842111  -0.1968107   0.1990585   0.9837161      -2.422      -0.095
   0.9845708  -0.1970474   0.1995055   0.9840327      -2.103      -0.111
   0.9848006  -0.1971167   0.1993993   0.9842979      -1.883      -0.101
   0.9843877  -0.1973394   0.1994527   0.9839185      -1.827       0.032
   0.9844869  -0.1979625   0.1999145   0.9840492      -1.748      -0.100
   0.9839841  -0.1984363   0.2002320   0.9835770      -1.530      -0.082
   0.9839021  -0.1985816   0.2002272   0.9835252      -1.319      -0.211
   0.9835994  -0.1987153   0.2005180   0.9847370      -1.128      -0.188
   0.9831379  -0.1993670   0.2010288   0.9843021      -1.019      -0.184
   0.9829406  -0.1995957   0.2011197   0.9841321      -0.805      -0.126
   0.9832886  -0.2001759   0.2015662   0.9845083      -0.754      -0.227
   0.9834855  -0.2005030   0.2017612   0.9847327      -0.530      -0.379
   0.9836051  -0.2005917   0.2018685   0.9848489      -0.309      -0.240
   0.9830461  -0.2010895   0.2023858   0.9842839       0.015      -0.099
   0.9835051  -0.2008923   0.2022094   0.9847401       0.196      -0.189
   0.9834850  -0.2009707   0.2023099   0.9847155       0.239      -0.142
   0.9828912  -0.2010964   0.2026752   0.9851693       0.485      -0.020
   0.9827241  -0.2014887   0.2030932   0.9849960       0.838      -0.249
   0.9822454  -0.2015283   0.2031586   0.9845095       1.022      -0.187
   0.9823193  -0.2018457   0.2035049   0.9845778       1.059      -0.215
   0.9824314  -0.2020769   0.2037666   0.9846841       1.294      -0.180
   0.9828967  -0.2023257   0.2040484   0.9851452       1.473      -0.132
   0.9837872  -0.2022602   0.2042027   0.9859949       1.753      -0.137
   0.9841256  -0.2025252   0.2046942   0.9862881       1.922       0.059
   0.9832846  -0.2034246   0.2061003   0.9867006       2.136      -0.061
   0.9832802  -0.2029732   0.2058892   0.9866464       2.166       0.088
   0.9832252  -0.2023928   0.2055589   0.9865393       2.459      -0.011
   0.9832072  -0.2021561   0.2055852   0.9864668       2.552      -0.051
   0.9836586  -0.2017567   0.2054633   0.9868649       2.878       0.175
   0.9833627  -0.2022291   0.2062289   0.9865051       2.991       0.110
   0.9832717  -0.2030268   0.2073382   0.9863470       3.288      -0.010
   0.9825897  -0.2029151   0.2075508   0.9855918       3.562      -0.040
   0.9830468  -0.2028920   0.2075006   0.9847938       3.746      -0.003
   0.9828888  -0.2033936   0.2082462   0.9845824       4.069       0.091
   0.9826397  -0.2037031   0.2088180   0.9842760       4.454       0.069
   0.9824932  -0.2034392   0.2088365   0.9840707       4.659       0.140
   0.9836590  -0.2036178   0.2093315   0.9851774       4.939       0.303
   0.9856571  -0.2029574   0.2087414   0.9858025       5.460       0.148
   0.9853351  -0.2030301   0.2091856   0.9854019       5.660       0.200
   0.9848255  -0.2041171   0.2106845   0.9847987       5.935       0.268
   0.9850655  -0.2047886   0.2118181   0.9849392       6.162       0.163
   0.9855632  -0.2056013   0.2131497   0.9853252       6.372       0.212
