   1.0000005   0.0000000   0.0000000   1.0000005     -28.312       6.437
   1.0000005   0.0000000   0.0000000   1.0000005     -26.439       5.281
   1.0000005   0.0000000   0.0000000   1.0000005     -22.268       3.093
   1.0000005   0.0000000   0.0000000   1.0000005     -20.624       6.806
   1.0000005   0.0000000   0.0000000   1.0000005     -16.906       5.596
   1.0000005   0.0000000   0.0000000   1.0000005     -17.635       1.729
   1.0000005   0.0000000   0.0000000   1.0000005     -15.097       3.807
   1.0000005   0.0000000   0.0000000   1.0000005     -15.632       3.977
   1.0000005   0.0000000   0.0000000   1.0000005      -9.911       0.862
   1.0000005   0.0000000   0.0000000   1.0000005     -12.499       4.333
   1.0000005   0.0000000   0.0000000   1.0000005      -8.025       2.459
   1.0000005   0.0000000   0.0000000   1.0000005      -8.177       6.034
   1.0000005   0.0000000   0.0000000   1.0000005      -2.102       2.896
   1.0000005   0.0000000   0.0000000   1.0000005      -4.858       3.403
   1.0000005   0.0000000   0.0000000   1.0000005      -3.748      -1.118
   1.0000005   0.0000000   0.0000000   1.0000005       0.487       1.732
   1.0000005   0.0000000   0.0000000   1.0000005       3.363      -0.568
   1.0000005   0.0000000   0.0000000   1.0000005       0.981       0.150
   1.0000005   0.0000000   0.0000000   1.0000005       2.695      -0.652
   1.0000005   0.0000000   0.0000000   1.0000005       4.147      -1.025
   1.0000005   0.0000000   0.0000000   1.0000005       5.587      -4.013
   1.0000005   0.0000000   0.0000000   1.0000005       5.865      -0.630
   1.0000005   0.0000000   0.0000000   1.0000005       6.020      -2.057
   1.0000005   0.0000000   0.0000000   1.0000005       7.395      -3.580
   1.0000005   0.0000000   0.0000000   1.0000005       8.095      -1.560
   1.0000005   0.0000000   0.0000000   1.0000005      10.376      -5.864
   1.0000005   0.0000000   0.0000000   1.0000005      13.012      -0.870
   1.0000005   0.0000000   0.0000000   1.0000005      11.416       0.427
   1.0000005   0.0000000   0.0000000   1.0000005      10.926      -2.520
   1.0000005   0.0000000   0.0000000   1.0000005       3.117      12.343
   1.0000005   0.0000000   0.0000000   1.0000005      18.264      -8.753
   1.0000005   0.0000000   0.0000000   1.0000005       4.427      -4.934
   1.0000005   0.0000000   0.0000000   1.0000005      22.679      -4.213
   1.0000005   0.0000000   0.0000000   1.0000005      11.840      -3.688
   1.0000005   0.0000000   0.0000000   1.0000005       9.039      -3.570
   1.0000005   0.0000000   0.0000000   1.0000005      13.064      -2.395
   1.0000005   0.0000000   0.0000000   1.0000005       8.963      -2.747
   1.0000005   0.0000000   0.0000000   1.0000005      11.897      -2.874
   1.0000005   0.0000000   0.0000000   1.0000005      14.236      -1.829
   1.0000005   0.0000000   0.0000000   1.0000005       9.578      -3.580
   1.0000005   0.0000000   0.0000000   1.0000005       8.800      -3.557
   1.0000005   0.0000000   0.0000000   1.0000005       8.739      -1.895
   1.0000005   0.0000000   0.0000000   1.0000005      10.676      -2.178
   1.0000005   0.0000000   0.0000000   1.0000005       6.618      -2.621
   1.0000005   0.0000000   0.0000000   1.0000005       6.181      -1.090
   1.0000005   0.0000000   0.0000000   1.0000005       4.953      -2.986
   1.0000005   0.0000000   0.0000000   1.0000005       6.328      -4.538
   1.0000005   0.0000000   0.0000000   1.0000005       6.939       0.877
   1.0000005   0.0000000   0.0000000   1.0000005       3.104      -2.166
   1.0000005   0.0000000   0.0000000   1.0000005      -5.002       0.042
   1.0000005   0.0000000   0.0000000   1.0000005       1.996       0.023
   1.0000005   0.0000000   0.0000000   1.0000005       1.230      -0.982
   1.0000005   0.0000000   0.0000000   1.0000005      -4.031      -0.445
   1.0000005   0.0000000   0.0000000   1.0000005      -1.343      -1.704
   1.0000005   0.0000000   0.0000000   1.0000005      -3.550       4.119
   1.0000005   0.0000000   0.0000000   1.0000005      -7.738       2.851
   1.0000005   0.0000000   0.0000000   1.0000005      -9.141       1.282
   1.0000005   0.0000000   0.0000000   1.0000005      -7.054       0.421
   1.0000005   0.0000000   0.0000000   1.0000005      -7.081      -0.188
   1.0000005   0.0000000   0.0000000   1.0000005     -11.299       1.573
   1.0000005   0.0000000   0.0000000   1.0000005     -14.556       4.809
