  64.37
  62.42
  60.47
  58.48
  56.48
  54.49
  52.49
  50.49
  48.48
  46.48
  44.49
  42.49
  40.50
  38.50
  36.50
  34.45
  32.40
  30.35
  28.30
  26.25
  24.24
  22.22
  20.21
  18.20
  16.18
  14.17
  12.22
  10.28
   8.33
   6.39
   4.44
   2.50
   0.46
  -1.57
  -3.61
  -5.65
  -7.69
  -9.72
 -11.69
 -13.65
 -15.60
 -17.58
 -19.54
 -21.55
 -23.57
 -25.58
 -27.60
 -29.61
 -31.63
 -33.63
 -35.63
 -37.63
 -39.63
 -41.62
 -43.60
 -45.57
 -47.55
 -49.54
 -51.54
 -53.53
 -55.53
