   1.0000000   0.0000000   0.0000000   1.0000000       0.000       0.000
   1.0000000   0.0000000   0.0000000   1.0000000       2.268       0.066
   1.0000000   0.0000000   0.0000000   1.0000000       4.052       6.070
   1.0000000   0.0000000   0.0000000   1.0000000       2.035       1.279
   1.0000000   0.0000000   0.0000000   1.0000000       1.280      -0.382
   1.0000000   0.0000000   0.0000000   1.0000000      -0.025      -1.499
   1.0000000   0.0000000   0.0000000   1.0000000      -0.089      -1.161
   1.0000000   0.0000000   0.0000000   1.0000000      -1.270       4.878
   1.0000000   0.0000000   0.0000000   1.0000000       4.498      -2.729
   1.0000000   0.0000000   0.0000000   1.0000000      -0.764      -2.752
   1.0000000   0.0000000   0.0000000   1.0000000       1.008       4.801
   1.0000000   0.0000000   0.0000000   1.0000000       1.614      -2.223
   1.0000000   0.0000000   0.0000000   1.0000000       2.481       0.364
   1.0000000   0.0000000   0.0000000   1.0000000      -1.320       0.005
   1.0000000   0.0000000   0.0000000   1.0000000      -4.434      -4.294
   1.0000000   0.0000000   0.0000000   1.0000000       2.742       9.387
   1.0000000   0.0000000   0.0000000   1.0000000       3.750      -3.883
   1.0000000   0.0000000   0.0000000   1.0000000      -5.208       0.466
   1.0000000   0.0000000   0.0000000   1.0000000       1.737       0.295
   1.0000000   0.0000000   0.0000000   1.0000000       3.947       0.687
   1.0000000   0.0000000   0.0000000   1.0000000      -1.830      -5.850
   1.0000000   0.0000000   0.0000000   1.0000000       0.389       4.478
   1.0000000   0.0000000   0.0000000   1.0000000       0.231      -2.496
   1.0000000   0.0000000   0.0000000   1.0000000       0.626      -0.206
   1.0000000   0.0000000   0.0000000   1.0000000       0.831       1.050
   1.0000000   0.0000000   0.0000000   1.0000000       0.044      -2.587
   1.0000000   0.0000000   0.0000000   1.0000000       0.924       4.083
   1.0000000   0.0000000   0.0000000   1.0000000      -0.322       0.390
   1.0000000   0.0000000   0.0000000   1.0000000       0.815      -0.114
   1.0000000   0.0000000   0.0000000   1.0000000      -4.730      17.907
   1.0000000   0.0000000   0.0000000   1.0000000       8.271     -28.071
   1.0000000   0.0000000   0.0000000   1.0000000      -8.163       7.351
   1.0000000   0.0000000   0.0000000   1.0000000       7.074      -0.723
   1.0000000   0.0000000   0.0000000   1.0000000      -2.100      -0.761
   1.0000000   0.0000000   0.0000000   1.0000000      -3.074       2.974
   1.0000000   0.0000000   0.0000000   1.0000000       3.662       0.128
   1.0000000   0.0000000   0.0000000   1.0000000      -3.112      -0.688
   1.0000000   0.0000000   0.0000000   1.0000000       4.165      -0.799
   1.0000000   0.0000000   0.0000000   1.0000000      -0.139       0.198
   1.0000000   0.0000000   0.0000000   1.0000000      -1.860       1.209
   1.0000000   0.0000000   0.0000000   1.0000000       1.988      -1.819
   1.0000000   0.0000000   0.0000000   1.0000000      -3.160       1.811
   1.0000000   0.0000000   0.0000000   1.0000000       1.425      -1.751
   1.0000000   0.0000000   0.0000000   1.0000000       0.606       1.729
   1.0000000   0.0000000   0.0000000   1.0000000      -2.815       0.993
   1.0000000   0.0000000   0.0000000   1.0000000      -1.020      -3.776
   1.0000000   0.0000000   0.0000000   1.0000000       2.355       2.884
   1.0000000   0.0000000   0.0000000   1.0000000      -0.178       2.781
   1.0000000   0.0000000   0.0000000   1.0000000       0.388      -3.117
   1.0000000   0.0000000   0.0000000   1.0000000      -8.503       1.164
   1.0000000   0.0000000   0.0000000   1.0000000       4.807      -1.533
   1.0000000   0.0000000   0.0000000   1.0000000       2.579      -0.031
   1.0000000   0.0000000   0.0000000   1.0000000      -4.843       0.815
   1.0000000   0.0000000   0.0000000   1.0000000       5.242      -0.125
   1.0000000   0.0000000   0.0000000   1.0000000       0.117       1.882
   1.0000000   0.0000000   0.0000000   1.0000000      -8.045      -2.074
   1.0000000   0.0000000   0.0000000   1.0000000       3.285      -0.147
   1.0000000   0.0000000   0.0000000   1.0000000       0.429       1.431
   1.0000000   0.0000000   0.0000000   1.0000000       1.097       0.600
   1.0000000   0.0000000   0.0000000   1.0000000      -2.597      -2.113
   1.0000000   0.0000000   0.0000000   1.0000000      -1.133       1.340
