   0.9797231  -0.2064476   0.2066684   0.9784117     -18.181      -9.384
   0.9793389  -0.2072401   0.2073852   0.9780436     -15.574      -8.768
   0.9798599  -0.2086669   0.2087447   0.9785764     -12.737      -1.976
   0.9798252  -0.2074521   0.2075540   0.9789315     -11.017      -0.457
   0.9808403  -0.2067185   0.2067697   0.9799562      -9.379      -0.616
   0.9807446  -0.2066457   0.2066504   0.9798705      -9.077      -2.010
   0.9806965  -0.2067669   0.2067292   0.9798314      -8.956      -3.187
   0.9816691  -0.2071116   0.2067652   0.9795339     -11.323       1.152
   0.9827857  -0.2072878   0.2069049   0.9806533      -6.296      -0.612
   0.9829180  -0.2079172   0.2074997   0.9807917      -6.379      -3.654
   0.9827237  -0.2086436   0.2081937   0.9806045      -6.355       1.367
   0.9827245  -0.2083230   0.2079372   0.9805921      -4.151      -0.424
   0.9800391  -0.2079424   0.2080658   0.9800130      -1.863       0.354
   0.9800758  -0.2077570   0.2079373   0.9800376      -2.980       0.045
   0.9806710  -0.2065255   0.2067603   0.9806215      -6.362      -4.984
   0.9805796  -0.2060127   0.2062995   0.9805193      -5.516       4.572
   0.9809930  -0.2064310   0.2067680   0.9809220      -0.895       1.538
   0.9812615  -0.2067507   0.2071362   0.9811802      -5.797       1.072
   0.9811721  -0.2067907   0.2072232   0.9810809      -4.010       1.558
   0.9800384  -0.2074252   0.2081974   0.9813246      -0.253       3.239
   0.9808226  -0.2076101   0.2084282   0.9821013      -0.598      -2.891
   0.9812050  -0.2070849   0.2079636   0.9824720      -1.042       1.468
   0.9807669  -0.2068239   0.2077621   0.9820200      -0.230      -0.723
   0.9804175  -0.2069980   0.2079956   0.9816571       0.692      -0.825
   0.9805322  -0.2071388   0.2081959   0.9817595       1.535       0.391
   0.9808716  -0.2077002   0.2088174   0.9820869       2.352      -2.229
   0.9809110  -0.2070924   0.2082678   0.9821142       2.472       2.002
   0.9803540  -0.2070711   0.2084774   0.9823559       2.098       2.414
   0.9800259  -0.2070721   0.2085375   0.9820137       3.036       2.358
   0.9799031  -0.2075666   0.2090933   0.9818771      -5.021      18.952
   0.9797172  -0.2070410   0.2086274   0.9816777       9.179      -6.949
   0.9799885  -0.2071653   0.2091031   0.9818756      -0.204      -1.253
   0.9803266  -0.2071832   0.2094740   0.9821401       7.130      -0.492
   0.9802927  -0.2072757   0.2099213   0.9820302       5.367      -1.820
   0.9807855  -0.2074512   0.2104572   0.9824482       1.797       0.424
   0.9811672  -0.2070122   0.2103819   0.9827546       5.443       1.257
   0.9799175  -0.2067888   0.2108751   0.9830617       2.632       0.123
   0.9793833  -0.2071875   0.2116505   0.9824414       7.043       0.257
   0.9790951  -0.2074013   0.2122513   0.9820668       7.129       0.335
   0.9795875  -0.2067157   0.2119641   0.9824795       5.245       1.072
   0.9799246  -0.2064190   0.2120796   0.9827319       7.759      -0.286
   0.9802121  -0.2068821   0.2126534   0.9829968       4.540       0.745
   0.9801582  -0.2070808   0.2129679   0.9829171       6.527      -0.659
   0.9803803  -0.2072247   0.2132386   0.9831137       6.902       1.077
   0.9801028  -0.2071998   0.2135231   0.9836237       4.059       1.470
   0.9798509  -0.2077093   0.2141776   0.9833364       4.016      -2.419
   0.9796320  -0.2072138   0.2138338   0.9830846       6.098       0.924
   0.9795583  -0.2067961   0.2135818   0.9829765       5.482       3.635
   0.9801007  -0.2065617   0.2135323   0.9834863       6.786       0.722
   0.9802419  -0.2068678   0.2140378   0.9835854      -1.763      -0.078
   0.9801641  -0.2064958   0.2138787   0.9834634       3.411      -0.491
   0.9800061  -0.2070520   0.2148247   0.9828112       6.162       0.103
   0.9798046  -0.2067605   0.2150388   0.9825011       1.359      -0.254
   0.9801010  -0.2061558   0.2149820   0.9826872       6.517       0.652
   0.9803900  -0.2066493   0.2160760   0.9828480       6.389       2.528
   0.9807883  -0.2073813   0.2174650   0.9831051      -1.004      -1.235
   0.9809937  -0.2073035   0.2180975   0.9831614       2.414      -0.532
   0.9796552  -0.2067852   0.2185751   0.9827222       2.691       0.824
   0.9796389  -0.2065054   0.2191599   0.9825240       3.649       1.726
   0.9804071  -0.2066170   0.2202436   0.9830948       1.576      -0.870
   0.9803450  -0.2057780   0.2204710   0.9828148       0.251      -0.006
