   0.9797226  -0.2064475   0.2066683   0.9784112      -4.107       0.369
   0.9793384  -0.2072400   0.2073851   0.9780431      -3.719       0.459
   0.9798595  -0.2086668   0.2087446   0.9785759      -3.588       0.487
   0.9798247  -0.2074520   0.2075539   0.9789310      -3.596       0.320
   0.9808398  -0.2067184   0.2067696   0.9799557      -3.286       0.264
   0.9807441  -0.2066456   0.2066503   0.9798700      -3.270       0.344
   0.9806960  -0.2067668   0.2067291   0.9798309      -3.302       0.323
   0.9816686  -0.2071115   0.2067651   0.9795334      -3.407       0.146
   0.9827852  -0.2072877   0.2069048   0.9806528      -3.357       0.126
   0.9829175  -0.2079171   0.2074996   0.9807913      -3.261      -0.057
   0.9827232  -0.2086435   0.2081936   0.9806040      -3.229       0.048
   0.9827241  -0.2083229   0.2079371   0.9805916      -3.074       0.101
   0.9800386  -0.2079423   0.2080657   0.9800125      -3.145       0.006
   0.9800753  -0.2077569   0.2079372   0.9800371      -2.968      -0.033
   0.9806705  -0.2065254   0.2067602   0.9806210      -2.888       0.065
   0.9805791  -0.2060126   0.2062994   0.9805188      -2.795      -0.151
   0.9809925  -0.2064309   0.2067679   0.9809215      -2.652      -0.153
   0.9812610  -0.2067506   0.2071361   0.9811797      -2.347       0.002
   0.9811716  -0.2067906   0.2072231   0.9810804      -2.204      -0.161
   0.9800379  -0.2074251   0.2081973   0.9813241      -2.173       0.025
   0.9808221  -0.2076100   0.2084281   0.9821008      -1.939       0.019
   0.9812045  -0.2070848   0.2079635   0.9824715      -1.836      -0.101
   0.9807664  -0.2068238   0.2077620   0.9820195      -1.766       0.112
   0.9804170  -0.2069979   0.2079955   0.9816566      -1.500       0.081
   0.9805317  -0.2071387   0.2081958   0.9817590      -1.255       0.093
   0.9808711  -0.2077001   0.2088173   0.9820864      -1.020       0.003
   0.9809105  -0.2070923   0.2082677   0.9821137      -0.959       0.033
   0.9803535  -0.2070710   0.2084773   0.9823554      -0.934       0.128
   0.9800255  -0.2070720   0.2085374   0.9820132      -0.818       0.014
   0.9799026  -0.2075665   0.2090932   0.9818767      -0.522       0.013
   0.9797167  -0.2070409   0.2086273   0.9816772      -0.247      -0.054
   0.9799880  -0.2071652   0.2091030   0.9818751      -0.111       0.130
   0.9803261  -0.2071831   0.2094739   0.9821396       0.139       0.119
   0.9802922  -0.2072756   0.2099212   0.9820297       0.277      -0.024
   0.9807851  -0.2074511   0.2104571   0.9824477       0.336      -0.056
   0.9811667  -0.2070121   0.2103818   0.9827542       0.415      -0.119
   0.9799170  -0.2067887   0.2108750   0.9830612       0.517       0.077
   0.9793829  -0.2071874   0.2116504   0.9824409       0.685       0.112
   0.9790946  -0.2074012   0.2122512   0.9820663       0.949       0.021
   0.9795870  -0.2067156   0.2119640   0.9824790       1.135      -0.033
   0.9799241  -0.2064189   0.2120795   0.9827314       1.324      -0.026
   0.9802116  -0.2068820   0.2126533   0.9829963       1.575      -0.106
   0.9801577  -0.2070807   0.2129678   0.9829166       1.802      -0.093
   0.9803798  -0.2072246   0.2132385   0.9831132       1.940      -0.187
   0.9801023  -0.2071997   0.2135230   0.9836232       2.063      -0.171
   0.9798504  -0.2077092   0.2141775   0.9833359       2.237      -0.130
   0.9796315  -0.2072137   0.2138337   0.9830841       2.611      -0.126
   0.9795578  -0.2067960   0.2135817   0.9829760       2.745      -0.110
   0.9801002  -0.2065616   0.2135322   0.9834858       3.022      -0.042
   0.9802414  -0.2068677   0.2140377   0.9835849       3.048      -0.168
   0.9801636  -0.2064957   0.2138786   0.9834629       3.193      -0.102
   0.9800056  -0.2070519   0.2148246   0.9828107       3.410      -0.032
   0.9798041  -0.2067604   0.2150387   0.9825006       3.521      -0.149
   0.9801005  -0.2061557   0.2149819   0.9826867       3.516      -0.248
   0.9803895  -0.2066492   0.2160759   0.9828476       3.662      -0.250
   0.9807878  -0.2073812   0.2174649   0.9831046       3.729      -0.230
   0.9809933  -0.2073034   0.2180974   0.9831610       3.895      -0.096
   0.9796547  -0.2067851   0.2185750   0.9827217       4.046      -0.239
   0.9796384  -0.2065053   0.2191598   0.9825235       4.053      -0.166
   0.9804066  -0.2066169   0.2202435   0.9830943       4.090      -0.114
   0.9803445  -0.2057779   0.2204709   0.9828144       4.151      -0.316
