   1.0000005   0.0000000   0.0000000   1.0000005     -15.764      -6.638
   1.0000005   0.0000000   0.0000000   1.0000005     -13.496      -6.572
   1.0000005   0.0000000   0.0000000   1.0000005      -9.444      -0.502
   1.0000005   0.0000000   0.0000000   1.0000005      -7.409       0.777
   1.0000005   0.0000000   0.0000000   1.0000005      -6.129       0.395
   1.0000005   0.0000000   0.0000000   1.0000005      -6.154      -1.104
   1.0000005   0.0000000   0.0000000   1.0000005      -6.243      -2.265
   1.0000005   0.0000000   0.0000000   1.0000005      -7.513       2.613
   1.0000005   0.0000000   0.0000000   1.0000005      -3.015      -0.116
   1.0000005   0.0000000   0.0000000   1.0000005      -3.779      -2.868
   1.0000005   0.0000000   0.0000000   1.0000005      -2.771       1.933
   1.0000005   0.0000000   0.0000000   1.0000005      -1.157      -0.290
   1.0000005   0.0000000   0.0000000   1.0000005       1.324       0.074
   1.0000005   0.0000000   0.0000000   1.0000005       0.004       0.079
   1.0000005   0.0000000   0.0000000   1.0000005      -4.430      -4.215
   1.0000005   0.0000000   0.0000000   1.0000005      -1.688       5.172
   1.0000005   0.0000000   0.0000000   1.0000005       2.062       1.289
   1.0000005   0.0000000   0.0000000   1.0000005      -3.146       1.755
   1.0000005   0.0000000   0.0000000   1.0000005      -1.409       2.050
   1.0000005   0.0000000   0.0000000   1.0000005       2.538       2.737
   1.0000005   0.0000000   0.0000000   1.0000005       0.708      -3.113
   1.0000005   0.0000000   0.0000000   1.0000005       1.097       1.365
   1.0000005   0.0000000   0.0000000   1.0000005       1.328      -1.131
   1.0000005   0.0000000   0.0000000   1.0000005       1.954      -1.337
   1.0000005   0.0000000   0.0000000   1.0000005       2.785      -0.287
   1.0000005   0.0000000   0.0000000   1.0000005       2.829      -2.874
   1.0000005   0.0000000   0.0000000   1.0000005       3.753       1.209
   1.0000005   0.0000000   0.0000000   1.0000005       3.431       1.599
   1.0000005   0.0000000   0.0000000   1.0000005       4.246       1.485
   1.0000005   0.0000000   0.0000000   1.0000005      -0.484      19.392
   1.0000005   0.0000000   0.0000000   1.0000005       7.787      -8.679
   1.0000005   0.0000000   0.0000000   1.0000005      -0.376      -1.328
   1.0000005   0.0000000   0.0000000   1.0000005       6.698      -2.051
   1.0000005   0.0000000   0.0000000   1.0000005       4.598      -2.812
   1.0000005   0.0000000   0.0000000   1.0000005       1.524       0.162
   1.0000005   0.0000000   0.0000000   1.0000005       5.186       0.290
   1.0000005   0.0000000   0.0000000   1.0000005       2.074      -0.398
   1.0000005   0.0000000   0.0000000   1.0000005       6.239      -1.197
   1.0000005   0.0000000   0.0000000   1.0000005       6.100      -0.999
   1.0000005   0.0000000   0.0000000   1.0000005       4.240       0.210
   1.0000005   0.0000000   0.0000000   1.0000005       6.228      -1.609
   1.0000005   0.0000000   0.0000000   1.0000005       3.068       0.202
   1.0000005   0.0000000   0.0000000   1.0000005       4.493      -1.549
   1.0000005   0.0000000   0.0000000   1.0000005       5.099       0.180
   1.0000005   0.0000000   0.0000000   1.0000005       2.284       1.173
   1.0000005   0.0000000   0.0000000   1.0000005       1.264      -2.603
   1.0000005   0.0000000   0.0000000   1.0000005       3.619       0.281
   1.0000005   0.0000000   0.0000000   1.0000005       3.441       3.062
   1.0000005   0.0000000   0.0000000   1.0000005       3.829      -0.055
   1.0000005   0.0000000   0.0000000   1.0000005      -4.674       1.109
   1.0000005   0.0000000   0.0000000   1.0000005       0.133      -0.424
   1.0000005   0.0000000   0.0000000   1.0000005       2.712      -0.455
   1.0000005   0.0000000   0.0000000   1.0000005      -2.131       0.360
   1.0000005   0.0000000   0.0000000   1.0000005       3.111       0.235
   1.0000005   0.0000000   0.0000000   1.0000005       3.228       2.117
   1.0000005   0.0000000   0.0000000   1.0000005      -4.817       0.043
   1.0000005   0.0000000   0.0000000   1.0000005      -1.532      -0.104
   1.0000005   0.0000000   0.0000000   1.0000005      -1.103       1.327
   1.0000005   0.0000000   0.0000000   1.0000005      -0.006       1.927
   1.0000005   0.0000000   0.0000000   1.0000005      -2.603      -0.186
   1.0000005   0.0000000   0.0000000   1.0000005      -3.736       1.154
