  62.49
  60.45
  58.42
  56.45
  54.48
  52.51
  50.54
  48.51
  46.49
  44.46
  42.44
  40.50
  38.56
  36.62
  34.67
  32.73
  30.72
  28.71
  26.71
  24.70
  22.69
  20.73
  18.78
  16.82
  14.87
  12.92
  10.96
   8.95
   6.94
   4.93
   2.91
   0.90
  -1.11
  -3.02
  -4.94
  -6.86
  -8.78
 -10.70
 -12.70
 -14.71
 -16.71
 -18.72
 -20.72
 -22.73
 -24.70
 -26.67
 -28.63
 -30.59
 -32.56
 -34.51
 -36.48
 -38.43
 -40.40
 -42.36
 -44.34
 -46.33
 -48.31
 -50.27
 -52.29
 -54.29
 -56.28
