  0.006465 -0.003681 -0.983411   -21.698
 -0.009493  1.001946  0.000121     0.266
  1.015724  0.015054  0.005937   -55.997
