  0.999889  0.000281 -0.000433     0.181
  0.000068  1.004173 -0.000707     0.024
 -0.000091  0.001327  0.998649    -0.952
