0.9762960071199334   -0.21643961393810288   0.21643961393810288   0.9762960071199334   0   0
