  0.005501 -0.015051  0.984453    55.069
 -0.000539  0.993769  0.009225     0.217
 -1.018205 -0.005159  0.006522   -20.773
